Class,Velocity [m/s],Width [m/s]
1,0.05,0.1
2,0.15,0.1
3,0.25,0.1
4,0.35,0.1
5,0.45,0.1
6,0.55,0.1
7,0.65,0.1
8,0.75,0.1
9,0.85,0.1
10,0.95,0.1
11,1.1,0.2
12,1.3,0.2
13,1.5,0.2
14,1.7,0.2
15,1.9,0.2
16,2.2,0.4
17,2.6,0.4
18,3,0.4
19,3.4,0.4
20,3.8,0.4
21,4.4,0.8
22,5.2,0.8
23,6,0.8
24,6.8,0.8
25,7.6,0.8
26,8.8,1.6
27,10.4,1.6
28,12,1.6
29,13.6,1.6
30,15.2,1.6
31,17.6,1.6
32,20.8,1.6
